#ZVView-data-copy:  19-Jul-2023 16:26:13
#=======================================
#
#name:   ENDF/B-VIII.0: U-238(N,EL)U-238-L0
#X.axis: Incident Energy
#Y.axis: Cross Section
#wdata:  2
#ldata:  53542
#data...
#            X            Y
#          MeV        barns
         1e-11      35.1459 
   1.11082e-11      33.4556 
   1.23386e-11      31.8583 
   1.37059e-11      30.3478 
    1.5224e-11      28.9216 
   1.69111e-11      27.5741 
   1.87842e-11       26.303 
   2.08659e-11      25.1033 
    2.3177e-11      23.9729 
   2.57455e-11      22.9075 
   2.85971e-11       21.905 
   3.17662e-11      20.9616 
   3.52847e-11      20.0754 
   3.91949e-11       19.243 
   4.38434e-11      18.4122 
   4.90432e-11      17.6373 
   5.48596e-11      16.9157 
   6.13659e-11      16.2446 
   6.86438e-11      15.6216 
   7.67849e-11      15.0443 
   8.64931e-11      14.4784 
   9.74336e-11      13.9586 
   1.09752e-10      13.4827 
   1.24501e-10      13.0234 
   1.41231e-10      12.6072 
   1.61341e-10      12.2115 
   1.85604e-10      11.8398 
   2.13516e-10      11.5103 
   2.47345e-10      11.2058 
   2.88556e-10      10.9278 
   3.41383e-10      10.6669 
   4.06731e-10      10.4364 
   4.91398e-10       10.228 
   6.06315e-10      10.0378 
   7.64012e-10      9.86973 
   9.90031e-10      9.72219 
    1.32867e-9      9.59506 
    1.87281e-9      9.48703 
     2.8312e-9      9.39767 
    4.78787e-9      9.32614 
    9.71379e-9      9.27316 
    2.52419e-8      9.23973 
       2.53e-8      9.23968 
    2.62541e-7      9.18844 
    1.80218e-6      8.93309 
    2.80184e-6      8.70944 
    3.53057e-6      8.48775 
    4.06151e-6      8.26975 
    4.46823e-6      8.04765 
    4.76615e-6      7.83608 
    5.00556e-6      7.62024 
    5.22042e-6      7.37495 
    5.36876e-6      7.16494 
    5.48291e-6      6.97238 
    5.59921e-6      6.73954 
     5.6782e-6      6.55442 
    5.75831e-6       6.3384 
    5.83955e-6      6.08285 
    5.90134e-6      5.85773 
    5.96371e-6      5.59693 
    6.02667e-6      5.29147 
    6.06903e-6      5.05657 
    6.11169e-6      4.79106 
    6.14391e-6      4.56809 
    6.17613e-6      4.32279 
    6.20881e-6      4.04792 
    6.24148e-6      3.74291 
    6.26327e-6      3.52071 
    6.28536e-6      3.27835 
    6.30745e-6      3.01748 
    6.32954e-6      2.73688 
    6.35163e-6      2.43575 
    6.37279e-6      2.12832 
    6.39394e-6      1.80417 
      6.433e-6      1.18468 
    6.44435e-6      1.01138 
     6.4504e-6     0.923497 
    6.45645e-6     0.840405 
    6.46099e-6     0.782237 
    6.46553e-6     0.728595 
    6.46855e-6      0.69587 
    6.47233e-6     0.659032 
    6.47517e-6     0.634845 
    6.47801e-6     0.614069 
    6.48084e-6     0.597185 
    6.48368e-6     0.584742 
    6.48595e-6     0.578411 
    6.48822e-6     0.575698 
    6.49049e-6      0.57702 
    6.49219e-6      0.58094 
     6.4937e-6     0.586729 
    6.49559e-6     0.597283 
    6.49748e-6     0.611865 
    6.49937e-6     0.630878 
    6.50104e-6     0.651629 
    6.50247e-6     0.672849 
    6.50391e-6     0.697377 
    6.50535e-6      0.72547 
    6.50675e-6     0.756516 
    6.50811e-6     0.790491 
    6.50947e-6     0.828465 
    6.51083e-6     0.870741 
    6.51214e-6     0.915597 
    6.51338e-6     0.962772 
    6.51463e-6      1.01442 
    6.51588e-6      1.07086 
    6.51734e-6      1.14321 
    6.51893e-6      1.23081 
    6.52044e-6      1.32337 
    6.52195e-6      1.42564 
    6.52346e-6      1.53849 
    6.52482e-6      1.64986 
    6.52603e-6      1.75728 
    6.52725e-6      1.87321 
    6.52846e-6      1.99824 
    6.52959e-6      2.12428 
    6.53118e-6      2.31621 
    6.53277e-6      2.52769 
    6.53435e-6      2.76052 
    6.53594e-6      3.01669 
    6.53753e-6      3.29832 
    6.53874e-6      3.53142 
    6.53995e-6      3.78176 
    6.54116e-6      4.05051 
    6.54237e-6      4.33891 
    6.54388e-6      4.72907 
     6.5454e-6      5.15477 
    6.54691e-6      5.61896 
    6.54842e-6      6.12481 
    6.54994e-6      6.67573 
    6.55145e-6      7.27533 
    6.55296e-6      7.92749 
    6.55447e-6       8.6363 
    6.55584e-6       9.3263 
     6.5572e-6      10.0691 
    6.55856e-6      10.8682 
    6.55992e-6      11.7274 
    6.56128e-6      12.6506 
    6.56264e-6      13.6419 
      6.564e-6      14.7054 
    6.56537e-6      15.8458 
    6.56673e-6      17.0675 
    6.56809e-6      18.3754 
    6.56953e-6       19.855 
    6.57111e-6      21.6157 
     6.5727e-6      23.5164 
    6.57429e-6      25.5657 
    6.57588e-6      27.7725 
    6.57747e-6       30.146 
    6.57906e-6      32.6955 
    6.58064e-6      35.4305 
    6.58223e-6      38.3606 
    6.58382e-6      41.4953 
    6.58541e-6      44.8444 
      6.587e-6      48.4171 
    6.58859e-6      52.2231 
    6.59017e-6      56.2713 
    6.59229e-6      62.0612 
    6.59441e-6      68.3176 
    6.59653e-6      75.0591 
    6.59864e-6      82.3019 
    6.60076e-6      90.0605 
    6.60288e-6      98.3462 
      6.605e-6      107.167 
    6.60712e-6      116.529 
    6.60923e-6      126.431 
    6.61238e-6      142.134 
    6.61547e-6      158.656 
    6.61855e-6      176.235 
     6.6223e-6      198.914 
    6.62684e-6          228 
    6.63289e-6      268.824 
    6.64378e-6      343.773 
    6.64862e-6      375.469 
    6.65347e-6      404.765 
    6.65697e-6      423.946 
    6.66024e-6      439.898 
    6.66351e-6       453.75 
    6.66666e-6      464.896 
    6.66992e-6      474.015 
    6.67389e-6      481.531 
    6.67743e-6      484.821 
    6.67985e-6      485.203 
    6.68293e-6      483.497 
    6.68638e-6       478.75 
    6.69001e-6      470.657 
    6.69364e-6      459.608 
    6.69727e-6      445.883 
     6.7009e-6      429.813 
    6.70574e-6       405.37 
    6.71059e-6      378.326 
    6.71785e-6      334.917 
    6.72692e-6      279.835 
    6.73312e-6      243.931 
    6.73706e-6      222.503 
    6.74099e-6      202.355 
    6.74492e-6      183.621 
     6.7484e-6       168.29 
    6.75143e-6      155.927 
    6.75445e-6      144.461 
    6.75748e-6       133.88 
     6.7605e-6      124.158 
    6.76353e-6       115.26 
    6.76656e-6      107.147 
    6.76958e-6      99.7736 
    6.77261e-6      93.0901 
    6.77563e-6      87.0467 
    6.77866e-6      81.5923 
    6.78168e-6      76.6769 
    6.78471e-6      72.2513 
    6.78773e-6       68.269 
    6.79076e-6      64.6855 
    6.79378e-6      61.4597 
    6.79711e-6      58.2788 
    6.80074e-6      55.1952 
    6.80437e-6      52.4627 
      6.808e-6      50.0337 
    6.81163e-6      47.8668 
    6.81526e-6      45.9258 
    6.82071e-6      43.3714 
    6.82434e-6      41.8693 
    6.82979e-6      39.8649 
    6.83523e-6      38.1088 
    6.84068e-6       36.556 
    6.84612e-6      35.1713 
    6.85429e-6      33.3505 
    6.86246e-6      31.7769 
    6.87169e-6      30.2344 
    6.87925e-6      29.1207 
     6.8906e-6      27.6558 
    6.90194e-6      26.3909 
    6.91329e-6      25.2867 
    6.92463e-6      24.3141 
    6.93598e-6      23.4507 
    6.95111e-6      22.4394 
    6.96623e-6      21.5594 
    6.98136e-6      20.7867 
    7.00405e-6      19.7894 
    7.02674e-6      18.9463 
    7.04943e-6      18.2241 
    7.07429e-6      17.5431 
    7.09916e-6      16.9544 
    7.13645e-6      16.2072 
     7.1741e-6       15.581 
    7.21192e-6       15.051 
    7.24974e-6      14.5985 
    7.30088e-6      14.0823 
    7.35203e-6      13.6511 
    7.41728e-6      13.1939 
    7.48516e-6      12.8018 
    7.57629e-6      12.3734 
    7.68384e-6      11.9717 
    7.80579e-6      11.6113 
    7.93404e-6      11.3086 
    8.10273e-6      10.9927 
     8.2746e-6      10.7376 
    8.50973e-6      10.4619 
    8.81327e-6      10.1879 
    9.19158e-6      9.92644 
    9.72136e-6      9.64715 
    1.04645e-5       9.3461 
     1.1685e-5      8.95011 
    1.37672e-5      8.31538 
    1.47662e-5      7.96289 
    1.55079e-5      7.65452 
     1.6061e-5      7.38505 
    1.65174e-5      7.12718 
    1.69868e-5      6.81702 
    1.73471e-5      6.53711 
    1.75918e-5      6.32042 
      1.784e-5      6.07335 
    1.80917e-5      5.78852 
    1.82831e-5      5.54345 
    1.84296e-5      5.33592 
    1.86249e-5      5.02759 
    1.87936e-5      4.72622 
    1.89061e-5      4.50412 
    1.90158e-5      4.26881 
    1.91227e-5      4.01942 
    1.92324e-5      3.74021 
    1.93348e-5      3.45569 
    1.94259e-5      3.18086 
    1.95188e-5      2.87765 
    1.95935e-5       2.6158 
    1.96712e-5      2.32582 
    1.97471e-5      2.02437 
    1.98146e-5      1.74228 
    1.98849e-5      1.43631 
    2.00209e-5     0.829393 
    2.00585e-5      0.66658 
     2.0084e-5     0.560664 
    2.01029e-5     0.485213 
     2.0118e-5     0.427404 
    2.01331e-5     0.372352 
    2.01454e-5     0.329933 
    2.01577e-5      0.29001 
    2.01659e-5     0.264957 
    2.01752e-5     0.238435 
    2.01813e-5     0.221818 
    2.01875e-5     0.206119 
    2.01931e-5     0.192587 
    2.01983e-5     0.181042 
    2.02034e-5     0.170259 
    2.02085e-5      0.16028 
    2.02147e-5     0.149427 
    2.02201e-5     0.140994 
    2.02254e-5     0.133615 
    2.02301e-5     0.128173 
    2.02347e-5     0.123589 
     2.0239e-5     0.120084 
    2.02429e-5     0.117688 
    2.02467e-5     0.115971 
    2.02498e-5     0.115105 
    2.02539e-5      0.11468 
    2.02567e-5     0.114888 
    2.02598e-5     0.115596 
    2.02639e-5     0.117348 
    2.02678e-5     0.119863 
    2.02716e-5     0.123256 
    2.02751e-5      0.12709 
    2.02783e-5     0.131324 
    2.02816e-5      0.13645 
    2.02855e-5     0.143313 
    2.02889e-5     0.150391 
    2.02926e-5     0.158982 
    2.02967e-5     0.169697 
    2.02998e-5     0.178618 
    2.03032e-5     0.189169 
    2.03068e-5     0.201601 
    2.03109e-5      0.21722 
    2.03143e-5     0.231617 
    2.03178e-5     0.247171 
    2.03216e-5     0.265868 
    2.03255e-5     0.286111 
    2.03296e-5     0.309483 
    2.03342e-5     0.338073 
    2.03388e-5     0.369215 
    2.03439e-5     0.406969 
    2.03475e-5      0.43547 
    2.03511e-5     0.465757 
    2.03547e-5     0.497902 
    2.03588e-5     0.537014 
    2.03629e-5     0.578769 
     2.0367e-5     0.623293 
    2.03711e-5     0.670717 
    2.03763e-5      0.73429 
    2.03814e-5     0.802897 
    2.03865e-5     0.876849 
    2.03916e-5      0.95647 
    2.03968e-5      1.04212 
    2.04019e-5      1.13416 
     2.0407e-5      1.23301 
    2.04122e-5       1.3391 
    2.04168e-5      1.44117 
    2.04214e-5      1.54983 
    2.04276e-5      1.70568 
    2.04337e-5      1.87498 
    2.04386e-5      2.01927 
     2.0444e-5      2.19007 
    2.04494e-5      2.37361 
    2.04547e-5      2.57083 
    2.04601e-5      2.78276 
    2.04655e-5      3.01052 
    2.04709e-5      3.25538 
    2.04763e-5      3.51867 
    2.04817e-5      3.80191 
    2.04871e-5      4.10672 
    2.04924e-5      4.43496 
    2.04983e-5      4.82372 
    2.05045e-5      5.26518 
    2.05106e-5      5.74696 
    2.05168e-5       6.2735 
     2.0523e-5       6.8498 
    2.05291e-5      7.48174 
    2.05353e-5      8.17608 
    2.05414e-5       8.9408 
    2.05455e-5      9.49426 
    2.05496e-5      10.0863 
    2.05537e-5      10.7206 
    2.05578e-5      11.4011 
    2.05619e-5      12.1325 
     2.0566e-5      12.9198 
    2.05702e-5      13.7691 
    2.05743e-5       14.687 
    2.05784e-5      15.6812 
    2.05825e-5      16.7605 
    2.05866e-5      17.9347 
    2.05907e-5      19.2153 
    2.05948e-5      20.6155 
    2.05989e-5      22.1501 
     2.0603e-5      23.8363 
    2.06071e-5      25.6937 
    2.06112e-5      27.7447 
    2.06143e-5      29.4252 
    2.06173e-5      31.2409 
    2.06204e-5      33.2053 
    2.06235e-5      35.3328 
    2.06266e-5      37.6396 
    2.06297e-5      40.1434 
    2.06327e-5      42.8637 
    2.06358e-5      45.8214 
    2.06389e-5      49.0399 
     2.0642e-5      52.5442 
     2.0645e-5      56.3623 
    2.06481e-5      60.5234 
    2.06512e-5      65.0603 
    2.06543e-5      70.0077 
    2.06574e-5      75.4035 
    2.06602e-5      80.8799 
     2.0663e-5      86.5972 
    2.06658e-5      92.7767 
    2.06685e-5      99.4549 
    2.06713e-5      106.669 
    2.06741e-5      114.459 
    2.06768e-5      122.867 
    2.06796e-5      131.938 
    2.06824e-5      141.716 
    2.06852e-5      152.251 
    2.06879e-5      163.592 
    2.06912e-5      178.151 
    2.06945e-5      194.004 
    2.06978e-5      211.246 
    2.07011e-5       229.97 
    2.07043e-5      250.276 
    2.07076e-5      272.261 
    2.07109e-5      296.025 
    2.07142e-5      321.666 
    2.07171e-5      345.723 
    2.07199e-5      371.357 
    2.07228e-5      398.633 
    2.07257e-5      427.611 
    2.07286e-5      458.351 
    2.07329e-5      507.881 
    2.07372e-5      561.657 
    2.07415e-5      619.826 
    2.07458e-5      682.486 
    2.07501e-5       749.71 
    2.07544e-5      821.518 
    2.07587e-5      897.888 
    2.07624e-5      966.919 
    2.07669e-5      1055.64 
    2.07737e-5      1197.18 
    2.07803e-5      1343.19 
    2.07885e-5      1535.66 
    2.08032e-5      1898.73 
     2.0816e-5      2210.54 
    2.08258e-5      2437.48 
    2.08324e-5      2576.14 
    2.08389e-5      2701.22 
    2.08455e-5      2809.94 
    2.08521e-5      2899.81 
    2.08586e-5      2968.75 
    2.08642e-5      3009.69 
    2.08708e-5      3036.11 
    2.08754e-5      3040.31 
    2.08811e-5         3029 
    2.08869e-5      2999.56 
    2.08934e-5      2944.57 
       2.09e-5      2868.21 
    2.09066e-5      2772.46 
    2.09131e-5      2659.67 
    2.09197e-5      2532.51 
    2.09295e-5      2321.14 
     2.0941e-5      2055.19 
    2.09593e-5         1626 
    2.09686e-5      1416.14 
    2.09752e-5      1276.98 
    2.09817e-5      1145.98 
    2.09867e-5      1053.62 
     2.0992e-5      959.598 
    2.09961e-5      891.665 
    2.10002e-5      827.593 
    2.10043e-5       767.38 
    2.10084e-5      710.988 
    2.10125e-5      658.347 
    2.10166e-5      609.363 
    2.10207e-5      563.918 
    2.10248e-5      521.874 
    2.10289e-5      483.081 
     2.1033e-5      447.377 
    2.10371e-5      414.591 
    2.10413e-5      384.551 
    2.10454e-5      357.078 
    2.10495e-5      331.998 
    2.10536e-5      309.138 
    2.10576e-5      288.823 
    2.10615e-5       270.76 
    2.10654e-5      254.268 
    2.10693e-5      239.221 
    2.10732e-5      225.495 
    2.10771e-5      212.977 
     2.1081e-5       201.56 
    2.10849e-5      191.142 
    2.10887e-5      181.633 
    2.10926e-5      172.946 
    2.10965e-5      165.002 
    2.11024e-5      154.324 
    2.11082e-5      144.942 
    2.11141e-5      136.667 
    2.11206e-5      128.616 
    2.11257e-5      122.925 
    2.11308e-5      117.768 
    2.11385e-5      110.886 
    2.11462e-5      104.861 
    2.11539e-5       99.543 
    2.11616e-5      94.8099 
    2.11693e-5      90.5658 
    2.11795e-5      85.5371 
    2.11898e-5      81.1016 
    2.12001e-5       77.153 
    2.12103e-5      73.6102 
    2.12206e-5      70.4101 
     2.1236e-5       66.147 
    2.12514e-5       62.417 
    2.12667e-5      59.1244 
    2.12821e-5      56.1962 
    2.12965e-5      53.7412 
     2.1318e-5      50.4804 
    2.13396e-5      47.6397 
    2.13611e-5      45.1438 
    2.13827e-5      42.9342 
    2.14073e-5      40.7012 
    2.14278e-5      39.0413 
    2.14586e-5      36.8369 
    2.14894e-5      34.9176 
    2.15201e-5      33.2325 
    2.15509e-5      31.7419 
    2.15817e-5      30.4147 
    2.16227e-5      28.8566 
    2.16638e-5      27.4984 
    2.17048e-5      26.3047 
    2.17499e-5      25.1486 
    2.17992e-5      24.0425 
    2.18484e-5      23.0704 
    2.18977e-5      22.2092 
     2.1961e-5      21.2368 
    2.20383e-5      20.2152 
    2.21156e-5      19.3401 
    2.21929e-5      18.5824 
    2.22708e-5      17.9154 
    2.23492e-5      17.3238 
    2.24668e-5      16.5577 
    2.25823e-5      15.9186 
    2.26934e-5      15.3868 
    2.28415e-5      14.7779 
    2.30018e-5        14.22 
    2.31677e-5      13.7281 
    2.33927e-5      13.1666 
    2.36177e-5       12.697 
     2.3899e-5      12.2049 
    2.42401e-5      11.7109 
    2.45909e-5      11.2868 
    2.50127e-5      10.8557 
    2.54857e-5      10.4435 
    2.61171e-5      9.96987 
    2.70522e-5      9.36041 
    2.90851e-5      8.13244 
    2.99116e-5       7.5899 
    3.05461e-5      7.12764 
     3.0977e-5      6.78126 
    3.14141e-5      6.39515 
    3.17465e-5      6.07327 
     3.2082e-5      5.71737 
    3.24207e-5      5.32121 
    3.26485e-5      5.03027 
     3.2878e-5       4.7146 
    3.31092e-5       4.3708 
    3.33419e-5      3.99537 
    3.35177e-5      3.69066 
    3.36935e-5      3.36568 
    3.38717e-5      3.01436 
      3.405e-5      2.64051 
    3.42177e-5      2.26824 
    3.43646e-5      1.92754 
    3.45358e-5      1.51628 
    3.47558e-5     0.981259 
    3.48448e-5     0.770398 
    3.49059e-5     0.630899 
    3.49513e-5     0.531393 
    3.49862e-5     0.457962 
    3.50141e-5     0.401574 
    3.50438e-5     0.344341 
    3.50656e-5     0.304265 
    3.50874e-5     0.266099 
    3.51084e-5      0.23145 
    3.51258e-5     0.204211 
    3.51398e-5      0.18358 
    3.51538e-5     0.164053 
    3.51651e-5     0.149051 
    3.51782e-5     0.132761 
    3.51869e-5     0.122538 
    3.51957e-5      0.11285 
    3.52061e-5     0.101959 
    3.52131e-5    0.0951613 
    3.52201e-5    0.0887481 
    3.52288e-5    0.0812907 
    3.52367e-5    0.0751289 
    3.52445e-5    0.0695076 
    3.52511e-5    0.0652495 
    3.52576e-5    0.0613915 
    3.52637e-5    0.0581619 
     3.5269e-5    0.0556867 
    3.52742e-5    0.0534886 
    3.52786e-5    0.0518732 
    3.52838e-5    0.0502002 
    3.52886e-5    0.0489265 
     3.5293e-5    0.0479888 
    3.52986e-5    0.0470905 
    3.53037e-5    0.0466048 
    3.53083e-5    0.0464204 
    3.53135e-5    0.0465192 
    3.53187e-5    0.0469555 
    3.53231e-5    0.0475827 
    3.53276e-5    0.0484795 
    3.53331e-5    0.0499615 
    3.53379e-5    0.0515738 
    3.53432e-5    0.0536935 
    3.53484e-5    0.0561983 
     3.5353e-5     0.058713 
    3.53589e-5    0.0623996 
    3.53632e-5    0.0654666 
    3.53676e-5    0.0688261 
     3.5372e-5    0.0724837 
    3.53772e-5    0.0772747 
    3.53824e-5    0.0825138 
    3.53883e-5    0.0889567 
    3.53942e-5    0.0959956 
    3.54003e-5     0.103942 
    3.54069e-5     0.113207 
    3.54134e-5     0.123272 
    3.54208e-5     0.135676 
    3.54287e-5     0.150002 
    3.54365e-5     0.165599 
    3.54427e-5     0.178639 
    3.54488e-5     0.192496 
    3.54549e-5     0.207196 
     3.5461e-5     0.222761 
     3.5468e-5     0.241641 
    3.54749e-5     0.261721 
    3.54819e-5      0.28304 
    3.54889e-5     0.305639 
    3.54976e-5      0.33575 
    3.55064e-5     0.368012 
    3.55151e-5     0.402512 
    3.55238e-5     0.439343 
    3.55343e-5     0.486755 
    3.55448e-5      0.53784 
    3.55552e-5     0.592784 
    3.55657e-5     0.651783 
    3.55749e-5     0.706899 
     3.5584e-5     0.765424 
    3.55932e-5     0.827513 
    3.56054e-5     0.916121 
    3.56176e-5      1.01176 
    3.56299e-5      1.11486 
     3.5639e-5      1.19736 
    3.56512e-5      1.31465 
    3.56635e-5      1.44076 
    3.56739e-5      1.55629 
    3.56844e-5      1.67909 
    3.56984e-5       1.8548 
    3.57123e-5      2.04516 
    3.57237e-5      2.21137 
    3.57368e-5      2.41689 
    3.57499e-5      2.63816 
     3.5763e-5      2.87633 
     3.5776e-5      3.13263 
    3.57891e-5      3.40842 
    3.58022e-5      3.70517 
    3.58153e-5       4.0245 
    3.58284e-5      4.36813 
    3.58415e-5        4.738 
    3.58546e-5      5.13618 
    3.58677e-5      5.56497 
    3.58808e-5      6.02687 
    3.58939e-5      6.52463 
     3.5907e-5      7.06131 
      3.592e-5      7.64023 
    3.59331e-5      8.26508 
    3.59462e-5      8.93996 
